wavelength	P1	P2	P3	P4	P5	P6	P7	P8	P9
350	0.00532282430759	0.00483949888086	0.00356515193799	0.0052543613126	0.00384737554333	0.00535611762941	0.00854015359624	0.00376630530553	0.00307713922174
351	0.00525078926636	0.00485493170375	0.00356105765041	0.00531246866438	0.00386953526335	0.00534439990428	0.00850254132273	0.00383027083912	0.00307400676287
352	0.00518819355547	0.00486793864149	0.00355889987352	0.00536051632058	0.0038916693566	0.0053359905888	0.00846928154516	0.0038839423702	0.00307355525557
353	0.00513503717493	0.00487851969409	0.00355867860732	0.00539850428119	0.00391377782309	0.00533088968297	0.00844037426352	0.00392731989877	0.00307578469984
354	0.00509132012473	0.00488667486154	0.00356039385182	0.00542643254621	0.00393586066282	0.00532909718679	0.00841581947781	0.00396040342482	0.00308069509568
355	0.00505704240489	0.00489240414385	0.00356404560701	0.00544430111565	0.00395791787579	0.00533061310027	0.00839561718803	0.00398319294835	0.0030882864431
356	0.00503220401539	0.00489570754102	0.00356963387289	0.0054521099895	0.00397994946199	0.0053354374234	0.00837976739418	0.00399568846937	0.00309855874209
357	0.00502395763186	0.00487705656743	0.00358590791054	0.00543617741846	0.00401813306703	0.00534557718537	0.00835907459134	0.00398504270824	0.00311602503014
358	0.00504027463742	0.00486428282481	0.00359607001406	0.00540433226496	0.00405128417209	0.00535323644857	0.00836277428644	0.00398472274175	0.00313188704874
359	0.00504272856632	0.00487843772116	0.00361084031012	0.00536590382405	0.00407541293986	0.00535764456093	0.00837551931455	0.00398294624085	0.00314911581678
360	0.0050367406982	0.00489768536001	0.00361398788537	0.00534412722031	0.0040843474956	0.00535160845672	0.00838414670156	0.00395100979446	0.00317048784689
361	0.00502810035813	0.00492081113598	0.00362169608063	0.00536082988404	0.00407727153412	0.00535892947502	0.00837894011941	0.00392445364945	0.00318936591476
362	0.00501776020353	0.00494326045537	0.0036389505179	0.00537727745768	0.00406448871938	0.00536909920714	0.0083668965244	0.00390607204693	0.00320429544243
363	0.00499602623986	0.00496494549531	0.00364978766006	0.00538176944375	0.00405339698581	0.00537219890025	0.00835214033477	0.00389584277211	0.00321555222054
364	0.00496315107213	0.00498068438322	0.00365648646688	0.00539357598229	0.00403155114786	0.00536089207658	0.00833795066635	0.00389540010084	0.00322281996889
365	0.00495412770301	0.00499460857511	0.00366595447724	0.00541379432461	0.00402849239964	0.00534285337086	0.00833884816343	0.00389144028964	0.00323444224576
366	0.00497703526868	0.00501712566592	0.00366703586724	0.00544615231733	0.00404822028783	0.00532867746347	0.0083461626592	0.00389063488869	0.00325562292165
367	0.00498934777453	0.00504762757314	0.00367520820834	0.00547360036914	0.00406903819017	0.00531489030772	0.00834437646491	0.00389900539717	0.00327118440456
368	0.00499682353639	0.00505887808403	0.0036922083672	0.00548917089414	0.00410245733064	0.00532315233543	0.0083463583169	0.00390807013483	0.00327771086571
369	0.00500853405265	0.0050622062935	0.00369741074543	0.00550382715958	0.00412443357433	0.00532808591575	0.00834411212704	0.00392027323588	0.0032752636943
370	0.00501922633322	0.00507750440678	0.00368656451235	0.00552230839456	0.00412395440764	0.00530020820193	0.00834520298604	0.00394074265581	0.00326183270816
371	0.00502891338963	0.00510110062086	0.00368829628375	0.00554567713034	0.0041260545939	0.00528320393526	0.00836380554416	0.00394908184568	0.00326078499961
372	0.00503497028801	0.00512548481287	0.00369460291123	0.00557241399852	0.00413383903943	0.00528739262359	0.00838779022771	0.00395591683247	0.00327098160338
373	0.00505011794835	0.00514099405739	0.00369168625968	0.005595689549	0.00414076008789	0.00530456930781	0.00840823474524	0.0039683368878	0.00328287381876
374	0.00507140481981	0.00514586730299	0.00368710053092	0.00558607758574	0.00413831967942	0.00531293725268	0.00842001505592	0.00397734563776	0.00329206645293
375	0.005086923287	0.0051440858536	0.00367594249636	0.00557575296754	0.00412826375847	0.00531566610566	0.00842476192854	0.00399295667366	0.00331466367371
376	0.00509658601973	0.00514893737054	0.00366215179665	0.00558925551754	0.0041201056221	0.00531005958711	0.00842168007558	0.00400999323582	0.00334579784813
377	0.00512165001833	0.00516447107103	0.00366533557318	0.00560949743101	0.00412873859584	0.00528861364957	0.00841871130802	0.0040120729373	0.00337930872681
378	0.00516148508224	0.00518671920203	0.00365945403568	0.00563154644558	0.00414854340079	0.0052766460768	0.00840909724679	0.00402827844914	0.00343157759951
379	0.00519605549405	0.00520830286755	0.00365261247913	0.00565798915219	0.00417875113005	0.00527471487962	0.00839144781149	0.00405714898618	0.00348346507305
380	0.00519662429187	0.00521963716887	0.00366829331275	0.00568564651916	0.00421421690356	0.00527804434622	0.00838050187343	0.00408471237363	0.0035049360957
381	0.00517487142569	0.00523322800605	0.00368624095625	0.00572929704083	0.00421829771018	0.00528180073425	0.00838419590256	0.00410969761059	0.00349989016613
382	0.0051718798734	0.00526342986907	0.00370154021752	0.00578482199601	0.00421267223037	0.00527787108002	0.00840186976489	0.00410984944662	0.00349472158308
383	0.00519342886069	0.00530117051656	0.0037227774754	0.00583942182382	0.00423412092441	0.00528506647912	0.00844919726154	0.00408774526498	0.00350657731092
384	0.00520080407293	0.00533805709683	0.00375087233231	0.00587979956717	0.00428157501989	0.0053098023746	0.00850747569976	0.0040743699228	0.00352635289188
385	0.0052129633129	0.00537010827736	0.00377449558939	0.00590209515513	0.00433726671687	0.00534633332927	0.00856571968979	0.00407542705225	0.00353727483007
386	0.00522734369292	0.00539833142479	0.00380195841237	0.00591706352924	0.00439414210194	0.00538929764475	0.00861939369285	0.00409226554162	0.00355362077714
387	0.00523874593534	0.00542864669681	0.00384340045844	0.00593958355245	0.00445491686698	0.00543442338411	0.00867346741172	0.00412603721968	0.00359758636519
388	0.00527098855643	0.00547458862176	0.00388281983566	0.00596040277016	0.00451041914678	0.00546340834933	0.00871653581076	0.00415647522372	0.00363394629192
389	0.00531540631861	0.00554086634508	0.00392745565843	0.00598405486166	0.00457403332752	0.00549559634234	0.00875780680303	0.00420008468675	0.00367502022117
390	0.00536424629047	0.00560970976427	0.00397527156122	0.00600667614148	0.00465030313317	0.00555349059121	0.00880681122751	0.00427355287793	0.0037417683712
391	0.00542355459133	0.00565981176907	0.00401810777057	0.00602844023579	0.00472170424818	0.00561745970469	0.00885816510053	0.00435272295911	0.00381062290985
392	0.00547887691129	0.00571077522912	0.00405657082833	0.0060709529426	0.00477334034545	0.00567534009902	0.00893780755616	0.00442620789053	0.00386822576905
393	0.00552529177498	0.00577165066318	0.00409115931538	0.00613592250847	0.00480636027262	0.00572649940544	0.00904372057957	0.00449552266457	0.0039209595528
394	0.00557858424329	0.00584741838978	0.0041298496434	0.00621115286257	0.00484739315885	0.00576033248463	0.00913463115325	0.00455489762389	0.00398812219976
395	0.00563998309627	0.00592711936215	0.00418649803619	0.00629160904892	0.00490075813908	0.00578864813313	0.00922882991558	0.00461978636945	0.00405989125602
396	0.00569824023794	0.00600797148328	0.00425060992566	0.00637812152085	0.00497059451465	0.00583418776795	0.00933618446126	0.00469619839473	0.00412760954357
397	0.00576014938247	0.00609499566672	0.00430139064271	0.00646897426534	0.00504929759966	0.00589642158514	0.0094449788203	0.00477490189101	0.00418661272585
398	0.0058106994972	0.00617872264131	0.00436281170513	0.00655976707883	0.00513047444958	0.00596067710671	0.00954977942862	0.00485909653538	0.00425567705498
399	0.00586034256164	0.00627809089488	0.00443967025924	0.00665304454324	0.00521330949268	0.00602662262229	0.00964943980012	0.00494387585018	0.00433071801975
400	0.00593255298613	0.00640271032346	0.00451993332819	0.0067416683061	0.00529643965774	0.00609717897364	0.00974481546478	0.0050215000527	0.00439443274219
401	0.00600748191659	0.00653763677518	0.00461112154152	0.00682680758142	0.00539469799103	0.0061932084857	0.00984491920871	0.00510655075796	0.00447145695615
402	0.00609336577235	0.00667783146508	0.00471310495135	0.00691513251181	0.0055100088577	0.00630381287141	0.00995261725517	0.0052078122803	0.0045584491284
403	0.00619663342834	0.00681906695303	0.00481172690737	0.00700893654664	0.00562346385736	0.00641375091481	0.0100671346497	0.00531541722514	0.00465091572486
404	0.00629640648637	0.00697842795387	0.00490897915938	0.00712571888388	0.00572402224012	0.00652179014682	0.010202722424	0.00542106011252	0.00475835496242
405	0.00638255586783	0.00713935950769	0.00501598088507	0.00725456180413	0.00582404505865	0.00663701594422	0.0103488987293	0.00553127106457	0.00487698322771
406	0.00647023599363	0.00729174275696	0.00512787250096	0.00738730510669	0.00593319129304	0.00675821273364	0.0104963642525	0.00565338285912	0.00500138939595
407	0.00658366841507	0.00744745023511	0.0052360470184	0.00752967574988	0.00605007135586	0.0068787543677	0.0106597197694	0.00578782347297	0.00512387042116
408	0.00670304598283	0.00761459590016	0.00533382083389	0.00768117282223	0.0061729502467	0.00701471377934	0.0108361808109	0.00592618751174	0.00525076626522
409	0.00682087768273	0.00778648052451	0.00542685568941	0.00784163710769	0.00630143983059	0.00715906223531	0.0110248444217	0.00606488404384	0.0053856008484
410	0.006943912038	0.00795428410892	0.00553526612677	0.00800711771178	0.00642981137383	0.00729739970192	0.0112258396633	0.00620820732344	0.0055286864481
411	0.00707494188186	0.00814035097452	0.00566168125968	0.00817733828758	0.00655990336565	0.00744316562657	0.011427893498	0.00635317512304	0.00567394993581
412	0.00721264549808	0.00833437692592	0.0057930396744	0.00834525799364	0.00669615369387	0.00759948189208	0.0116297526949	0.00649475011483	0.00581919925516
413	0.00735079661595	0.00852103481481	0.00592181490504	0.00850482631247	0.00684085633012	0.00776267356525	0.0118309679678	0.00663574290082	0.00596484174068
414	0.00749027191926	0.00871355223178	0.00605828849105	0.00867068794148	0.00699534095399	0.00792373064696	0.0120346691604	0.00679142119034	0.00610960315412
415	0.00762996404862	0.00891432178403	0.00620200204752	0.00884082341434	0.00714674056033	0.00808136598169	0.0122393700646	0.00695035970805	0.00625901964
416	0.00776519542839	0.00911585449715	0.0063428656784	0.00900910459016	0.00728443486506	0.00824167029769	0.0124447508047	0.00710132508793	0.00641631295138
417	0.00789301771406	0.00931275526084	0.00647955300046	0.00917494826838	0.00741802816645	0.0084080273985	0.0126532515974	0.00724750526242	0.00657146729532
418	0.00802317674897	0.00950915983147	0.00660668140279	0.00934379418605	0.00755193681627	0.00857374672505	0.0128578273784	0.00739575067745	0.00672525159388
419	0.00815830508449	0.00970808031386	0.0067240268251	0.00951612143487	0.00768747439079	0.00873851267135	0.0130578176679	0.00754808387689	0.00687941616972
420	0.0082875194187	0.00990445438847	0.00684008834255	0.00968359629274	0.00781776359308	0.00890411937119	0.0132544771856	0.00769834627035	0.0070328548979
421	0.00841682342731	0.0100919076785	0.00696094200102	0.00984381448265	0.00794585156452	0.00906083593681	0.0134507649521	0.00784231629362	0.00718707987119
422	0.00854576039998	0.0102750786847	0.00708301799291	0.00999816743817	0.00807392254195	0.00920792096165	0.0136409976652	0.00797982474251	0.00734156915399
423	0.0086704021181	0.0104576558158	0.00720558152639	0.0101457489884	0.00820046274669	0.00934950003052	0.0138196382908	0.00811322547561	0.00749341107865
424	0.00878648310897	0.0106290685983	0.00732488834035	0.0102895016586	0.00832639110592	0.00948412738525	0.0139939878704	0.0082435988903	0.00763721730479
425	0.00889675027433	0.0107903411898	0.00744202571011	0.0104312247829	0.00844934626134	0.00961227644868	0.0141657042132	0.00837405286405	0.00777511561421
426	0.00900083085496	0.0109447855428	0.0075560321146	0.010569407562	0.00856534008019	0.00973413525071	0.0143313215606	0.00850415606755	0.00790739220291
427	0.0091008997551	0.0110939320385	0.00766268349234	0.0107002379575	0.00867265300768	0.0098484304089	0.014488522911	0.00862500479061	0.0080307902728
428	0.00919824587991	0.0112328777164	0.00775733075121	0.010825369291	0.008770960523	0.00996000377519	0.0146413784004	0.00873679083711	0.00814581814078
429	0.00929353217961	0.011364760331	0.00783851410546	0.0109469775863	0.00886025290279	0.0100727461032	0.0147888398224	0.00884141188483	0.00825693312873
430	0.00938606699312	0.0114965926383	0.00791492280942	0.0110658849483	0.00894452693938	0.0101840627947	0.0149269082081	0.00894205460576	0.00836577827962
431	0.0094728662703	0.0116235476404	0.00798990469601	0.011174915665	0.00903151032209	0.0102891049894	0.0150556591149	0.00904061171322	0.00846814971431
432	0.00955406493038	0.0117440388649	0.00806462518869	0.0112756107245	0.00911637208142	0.0103862864029	0.0151770869084	0.0091330023915	0.00856495255438
433	0.00963318033367	0.0118592161905	0.00813967236208	0.0113702068643	0.009195364637	0.0104755666028	0.0152930325838	0.0092181150675	0.0086607522484
434	0.00970957802338	0.0119738559988	0.00820584753499	0.0114601152063	0.00927502321286	0.0105563952543	0.0153981996206	0.00929956276833	0.00875532932174
435	0.00978267238638	0.0120855823989	0.00827175525265	0.0115505160354	0.00935501892094	0.0106355335227	0.0154948996866	0.00937999051614	0.00884429163978
436	0.00985032084123	0.0121913976431	0.00834386563419	0.0116398190332	0.00943373243041	0.0107157537851	0.0155882884007	0.0094595385646	0.00892571185239
437	0.00991541295093	0.0122929549133	0.00841486415415	0.0117236997086	0.00951065847663	0.010795770134	0.0156826115681	0.00953569094707	0.00900539217433
438	0.0099806231295	0.0123890759358	0.0084797187444	0.0118056347991	0.00958304132238	0.0108763951957	0.0157754961699	0.00961036484123	0.00908287723283
439	0.0100445250316	0.0124792041999	0.00853801823497	0.0118850541339	0.00965064230085	0.010956156037	0.0158656293529	0.00968215155168	0.00916093928895
440	0.0101111377093	0.0125687728133	0.00859909248671	0.0119649484722	0.0097190735515	0.011036788593	0.0159592693912	0.00975242155813	0.0092451785046
441	0.010183953816	0.0126628045563	0.00866412282553	0.0120451293533	0.00978780444074	0.0111213008501	0.0160521309313	0.00982171938611	0.00933205846579
442	0.0102582865439	0.0127613486038	0.00873399186714	0.0121245895037	0.00985809338919	0.0112064119277	0.0161450856042	0.00989287761134	0.00941991403336
443	0.0103289338354	0.0128599241534	0.00881074055689	0.0122037234356	0.00993213806837	0.0112873016581	0.0162416622752	0.00996944524964	0.00950684651456
444	0.0103999784877	0.0129591253972	0.00889260604769	0.0122899917013	0.010005229598	0.0113652464574	0.0163425143915	0.0100492855728	0.00959682804789
445	0.010475583104	0.0130641928545	0.00897523528892	0.012379784591	0.0100765365582	0.0114436819709	0.0164457164656	0.0101305955294	0.00969092645327
446	0.0105561637446	0.0131743439092	0.0090563110522	0.0124678975573	0.0101498936267	0.0115242191692	0.0165463803473	0.0102145989049	0.00978762146751
447	0.0106356212814	0.0132829378956	0.00913944610992	0.0125601093523	0.0102264306781	0.0116105625419	0.0166435422406	0.0103022517108	0.00988259550424
448	0.0107089025302	0.0133881504377	0.00922150507698	0.0126488600015	0.0103052614865	0.0116979660897	0.0167407663677	0.0103899630937	0.00997584210183
449	0.0107750787251	0.0134929437193	0.00930071841907	0.0127322759985	0.0103852530956	0.0117826114256	0.0168378333132	0.010475737017	0.0100664645548
450	0.0108410735176	0.0135994740636	0.00937993369758	0.0128180446085	0.0104638162559	0.0118655513531	0.0169305271672	0.0105604274961	0.0101525414476
451	0.0109086101017	0.0136993969625	0.0094558397437	0.0129037368537	0.0105388731287	0.0119460640822	0.0170193326773	0.0106405324011	0.0102379329237
452	0.0109759182483	0.0137954629464	0.00952988277086	0.0129843054586	0.0106084167185	0.0120256820873	0.0171049683669	0.0107156547489	0.0103237973532
453	0.0110405211108	0.0138874239015	0.00960257461593	0.0130554521273	0.0106697013704	0.0121033534401	0.0171838807983	0.0107855382668	0.0104021925594
454	0.0111012728945	0.0139690256681	0.00967360266614	0.0131198979509	0.0107282344435	0.0121738839202	0.0172602957667	0.0108491997375	0.0104722427121
455	0.0111562690867	0.0140379543135	0.00974199505232	0.0131778317755	0.0107841887971	0.0122347848287	0.0173324455753	0.0109077029701	0.0105355424392
456	0.0112075931482	0.0140967129965	0.00980530521097	0.0132302660777	0.0108363733904	0.0122897502632	0.0173982552535	0.0109621720181	0.0105949043908
457	0.0112572073236	0.0141561247101	0.00985791865679	0.0132789339022	0.0108828714315	0.0123481114325	0.0174598742438	0.0110122660954	0.0106531691467
458	0.0113006560049	0.0142117223578	0.00990181182531	0.0133256381045	0.0109226732066	0.0124039393251	0.0175139391825	0.0110571169456	0.0107050889943
459	0.0113341900636	0.0142605979906	0.00993918510044	0.0133691249895	0.0109590388595	0.0124513022854	0.0175598827233	0.0110973721269	0.0107505515665
460	0.0113603644033	0.0143079201674	0.00997118366014	0.0134035224359	0.0109941867855	0.012489509201	0.0176028569011	0.0111319398349	0.0107951989465
461	0.0113838675435	0.0143542385686	0.0100030984977	0.013433663646	0.0110256020182	0.012520451235	0.017638924069	0.0111611121914	0.0108368160365
462	0.0114064175394	0.0143960809605	0.010032485354	0.0134659301653	0.0110555496035	0.0125475045593	0.0176683674576	0.0111881702511	0.0108743114044
463	0.0114286244381	0.0144267269856	0.0100537455138	0.0135013256123	0.0110855495493	0.0125733045873	0.0176958152353	0.0112160898753	0.0109090386057
464	0.0114512435708	0.0144559133866	0.010074010906	0.0135319921387	0.0111091542858	0.0125985661452	0.0177221004727	0.0112430414479	0.0109412231604
465	0.0114725291908	0.0144848369285	0.0100958785342	0.0135591247664	0.0111291924227	0.0126231793575	0.0177489985686	0.0112690397028	0.0109692684756
466	0.0114934341928	0.0145076117258	0.0101184847426	0.0135873443475	0.0111514911073	0.0126460227089	0.0177782274433	0.0112935115032	0.0109906331409
467	0.0115121409963	0.0145249921766	0.010139064782	0.013612554739	0.0111723778372	0.0126659255723	0.0178062713704	0.011315874077	0.0110074217045
468	0.01152970987	0.0145424572985	0.0101566535147	0.0136363810218	0.0111913769152	0.0126889694558	0.0178339826623	0.0113368526629	0.0110253016857
469	0.0115503548684	0.0145624818023	0.0101715268392	0.0136606940992	0.0112076592537	0.0127179255279	0.017862685595	0.0113559372314	0.0110460341945
470	0.0115746001484	0.0145795514554	0.0101877365933	0.0136837779717	0.0112186485615	0.0127437888291	0.0178899541917	0.0113706027978	0.0110629738151
471	0.0115947678575	0.0146013598313	0.0102068913117	0.0137045644101	0.0112287842505	0.012765483911	0.0179171252435	0.0113858877878	0.0110807756102
472	0.0116089557943	0.0146253343748	0.0102257678976	0.013720688067	0.0112403122464	0.0127838546507	0.0179421992272	0.0114028788087	0.0111045908668
473	0.0116239111642	0.0146435738269	0.0102446177147	0.0137358146984	0.0112523572079	0.0128014747067	0.0179642376389	0.0114215907053	0.011134281364
474	0.0116407476982	0.0146603819922	0.0102644412018	0.0137532346863	0.0112672344774	0.0128174069579	0.0179877244937	0.011444828214	0.0111620647187
475	0.0116601023668	0.0146784988561	0.0102829164215	0.0137692279606	0.011285809675	0.0128355136154	0.0180125888737	0.0114711815412	0.0111870625908
476	0.0116839966779	0.0147004294984	0.0103020822669	0.0137790086749	0.0113034396874	0.0128578240652	0.0180369634948	0.0114971433642	0.0112117285321
477	0.0117077572883	0.014725716057	0.0103240125592	0.0137904120023	0.0113202713561	0.0128781101394	0.0180638629756	0.0115253368348	0.0112388326408
478	0.0117308557725	0.0147529963101	0.0103467799697	0.0138040517034	0.0113361174382	0.012897531205	0.018091340332	0.0115540973219	0.0112658329275
479	0.0117535515716	0.0147815120789	0.0103706912635	0.0138185909347	0.0113523603163	0.0129188764962	0.0181173550274	0.01158000299	0.0112914559453
